Time (hours),Distance from Spawning Point (km)
6.055555555555556e-05,3
6.527777777777778e-05,6
6.972222222222223e-05,9
7.416666666666666e-05,12
7.861111111111111e-05,15
8.333333333333333e-05,18
8.777777777777778e-05,21
9.25e-05,24
9.722222222222222e-05,27
0.00010194444444444445,30
0.00010638888888888888,33
0.00011111111111111112,37
0.00011583333333333333,41
0.00012027777777777777,45
0.00012472222222222222,49
0.00012944444444444445,53
0.00013416666666666666,57
0.0001388888888888889,61
0.00014333333333333334,65
0.00014805555555555554,69
0.0001525,73
0.00015694444444444444,77
0.00016166666666666668,81
0.00016638888888888888,85
0.0001711111111111111,89
0.00017583333333333334,93
0.00018055555555555555,97
0.000185,101
0.00018972222222222223,105
0.00019444444444444443,109
0.00019888888888888888,113
0.00020361111111111112,117
0.00020833333333333335,121
0.00021277777777777777,125
0.0002175,129
0.00022194444444444445,133
0.0002263888888888889,137
0.0002311111111111111,141
0.00023583333333333334,145
0.00024055555555555554,149
0.000245,153
0.0002497222222222222,158
0.00025416666666666665,163
0.0002586111111111111,168
0.00026333333333333336,173
0.00026777777777777775,178
0.0002725,183
0.0002772222222222222,188
0.00028166666666666666,193
0.00028638888888888887,198
0.00029111111111111113,203
0.0002955555555555556,208
0.0003,213
0.00030472222222222223,218
0.00030944444444444444,223
0.0003138888888888889,228
0.00031833333333333334,233
0.00032305555555555554,238
0.0003277777777777778,243
0.0003322222222222222,248
0.00033666666666666665,253
0.0003413888888888889,258
0.0003461111111111111,263
0.0003508333333333333,268
0.00035527777777777776,273
0.00036,278
0.0003644444444444444,283
0.00036888888888888887,288
0.00037361111111111113,293
0.0003780555555555556,298
0.0003827777777777778,303
0.00038722222222222223,309
0.00039194444444444444,315
0.00039666666666666664,321
0.0004013888888888889,327
0.00040583333333333335,333
0.00041055555555555555,339
0.00041527777777777776,345
0.0004197222222222222,351
0.00042416666666666666,357
0.0004286111111111111,363
0.0004333333333333333,369
0.00043805555555555557,375
0.0004425,381
0.0004469444444444444,387
0.0004516666666666667,393
0.0004561111111111111,399
0.0004605555555555556,405
0.00046583333333333334,411
0.000475,417
0.0004797222222222222,423
0.00048444444444444446,429
0.0004891666666666666,435
0.0004936111111111111,441
0.0004983333333333334,447
0.0005030555555555555,453
0.0005077777777777778,459
0.0005122222222222222,465
0.0005169444444444444,471
0.0005216666666666667,477
0.0005263888888888888,483
0.0005311111111111111,490
0.0005358333333333334,497
0.0005402777777777778,504
0.000545,511
0.0005497222222222222,518
0.0005544444444444444,525
0.0005588888888888889,532
0.0005636111111111111,539
0.0005683333333333333,546
0.0005727777777777777,553
0.0005775,560
0.0005822222222222223,567
0.0005869444444444444,574
0.0005916666666666667,581
0.0005966666666666667,588
0.0006013888888888889,595
0.0006061111111111111,602
0.0006108333333333333,609
0.0006152777777777777,616
0.00062,623
0.0006247222222222223,630
0.0006294444444444444,637
0.0006338888888888889,644
0.0006386111111111111,651
0.0006433333333333333,658
0.0006480555555555556,665
0.0006527777777777777,672
0.0006577777777777777,679
0.0006625,686
0.0006688888888888889,693
0.0006736111111111112,701
0.0006786111111111111,709
0.0006833333333333333,717
0.0006883333333333333,725
0.0006927777777777777,733
0.0006975,741
0.0007022222222222222,749
0.0007066666666666666,757
0.0007111111111111111,765
0.0007158333333333333,773
0.0007202777777777778,781
0.000725,789
0.0007297222222222222,797
0.0007341666666666667,805
0.0007391666666666666,813
0.0007438888888888889,821
0.0007486111111111111,829
0.0007530555555555555,837
0.0007577777777777778,845
0.0007622222222222222,853
0.0007672222222222222,861
0.0007752777777777777,869
0.00078,877
0.0007844444444444445,885
0.0007891666666666666,893
0.0007938888888888889,901
0.0007983333333333333,909
0.0008030555555555556,917
0.0008077777777777778,925
0.0008122222222222222,933
0.0008261111111111111,942
0.0008325,951
0.0008372222222222223,960
0.0008416666666666667,969
0.0008463888888888889,978
0.0008508333333333333,987
0.0008555555555555556,996
0.00086,1005
0.0008647222222222222,1014
0.0008694444444444445,1023
0.0008738888888888889,1032
0.0008786111111111112,1041
0.0008836111111111112,1050
0.0008883333333333333,1059
0.0008927777777777778,1068
0.0008972222222222222,1077
0.0009019444444444445,1086
0.0009061111111111111,1095
0.0009108333333333334,1104
0.0009155555555555555,1113
0.0009202777777777778,1122
0.000925,1131
0.0009297222222222222,1140
0.0009344444444444444,1149
0.0009391666666666667,1158
0.0009438888888888889,1167
0.0009488888888888889,1176
0.0009533333333333334,536
0.0009597222222222223,538
0.0009652777777777778,540
0.0009697222222222222,542
0.0009744444444444444,544
0.000978888888888889,546
0.000983611111111111,548
0.0009880555555555556,550
0.0009925,552
0.0009972222222222223,554
0.0010019444444444444,556
0.001006388888888889,558
0.001011111111111111,560
0.0010155555555555556,562
0.0010202777777777777,564
0.0010247222222222222,566
0.0010291666666666667,568
0.0010338888888888889,570
0.0010383333333333334,572
0.0010427777777777777,574
0.0010472222222222222,576
0.0010516666666666667,578
0.0010561111111111112,580
0.0010608333333333333,582
0.0010655555555555555,584
0.0010702777777777779,586
0.0010747222222222221,588
0.0010791666666666666,590
0.0010841666666666667,592
0.0010886111111111112,594
0.0010933333333333333,596
0.0010977777777777778,598
0.0011025,600
0.0011072222222222221,602
0.0011116666666666666,604
0.001116388888888889,606
0.0011230555555555555,608
0.0011275,610
0.0011322222222222222,612
0.0011366666666666667,614
0.0011416666666666667,616
0.0011466666666666667,618
0.0011513888888888889,620
0.0011558333333333334,622
0.0011605555555555555,624
0.001165,626
0.0011697222222222222,629
0.0011741666666666667,632
0.0011788888888888888,635
0.0011836111111111112,638
0.0011883333333333333,641
0.0011930555555555555,644
0.0011975,647
0.0012022222222222221,650
0.0012069444444444445,653
0.0012116666666666667,656
0.0012163888888888888,659
0.0012211111111111112,662
0.0012252777777777778,665
0.00123,668
0.0012347222222222221,671
0.0012394444444444445,674
0.0012441666666666666,677
0.0012486111111111111,680
0.0012533333333333333,683
0.0012580555555555557,686
0.0012625,689
0.0012675,692
0.0012719444444444445,695
0.001276388888888889,698
0.0012811111111111111,701
0.0012858333333333333,704
0.00129,707
0.0012944444444444444,710
0.001298888888888889,713
0.001303611111111111,716
0.0013080555555555556,719
0.0013125,722
0.0013172222222222222,725
0.0013216666666666667,728
0.0013263888888888889,731
0.001331111111111111,734
0.0013358333333333334,737
0.0013405555555555556,740
0.0013452777777777777,743
0.00135,746
0.0013547222222222222,749
0.0013591666666666667,752
0.001363611111111111,755
0.0013680555555555555,758
0.0013727777777777779,761
0.0013775,764
0.0013819444444444445,767
0.0013863888888888888,770
0.0013908333333333333,773
0.0013955555555555555,776
0.0014005555555555555,779
0.0014052777777777779,782
0.0014097222222222221,785
0.0014144444444444445,788
0.0014188888888888888,791
0.0014233333333333333,794
0.0014283333333333333,797
0.0014327777777777778,800
0.0014375,803
0.0014422222222222221,806
0.0014469444444444445,810
0.0014516666666666666,814
0.0014563888888888888,818
0.0014611111111111112,822
0.0014655555555555554,826
0.0014702777777777778,830
0.0014752777777777778,834
0.0014794444444444445,838
0.001483888888888889,842
0.0014886111111111111,846
0.0014930555555555556,850
0.0014975,854
0.0015022222222222223,858
0.001506388888888889,862
0.0015125,866
0.0015169444444444445,870
0.0015216666666666666,874
0.001526388888888889,878
0.0015311111111111111,882
0.0015358333333333333,886
0.0015405555555555556,890
0.0015452777777777778,894
0.00155,898
0.0015547222222222223,902
0.0015594444444444445,906
0.0015641666666666666,910
0.0015686111111111111,914
0.0015733333333333333,918
0.0015777777777777778,922
0.0015825,926
0.0015869444444444444,930
0.0015916666666666666,934
0.001596111111111111,938
0.0016005555555555556,942
0.0016052777777777777,946
0.0016097222222222222,950
0.0016141666666666667,954
0.001618888888888889,958
0.0016233333333333334,962
0.0016280555555555555,966
0.0016327777777777777,970
0.0016372222222222222,974
0.0016419444444444444,978
0.0016466666666666667,982
0.0016513888888888889,986
0.0016563888888888889,990
0.0016608333333333334,994
0.0016652777777777777,998
0.00167,1002
0.0016747222222222222,1006
0.0016791666666666667,1010
0.0016836111111111112,1014
0.0016883333333333334,1018
0.0016927777777777779,1022
0.0016975,1026
0.0017016666666666666,1030
0.0017063888888888888,1034
0.0017111111111111112,1038
0.0017161111111111112,1042
0.0017205555555555555,1046
0.0017252777777777778,1051
0.00173,1056
0.0017344444444444445,1061
0.001738888888888889,1066
0.0017433333333333333,1071
0.0017477777777777778,1076
0.0017522222222222223,1081
0.0017569444444444444,1086
0.001761388888888889,1091
0.001766111111111111,1096
0.0017705555555555556,1101
0.0017752777777777777,1106
0.00178,1111
0.0017847222222222223,1116
0.0017891666666666668,1121
0.001793888888888889,1126
0.001798611111111111,1131
0.0018030555555555556,1136
0.0018075,1141
0.0018119444444444444,1146
0.0018169444444444444,1151
0.0018216666666666667,1156
0.001826388888888889,1161
0.001831111111111111,1166
0.0018358333333333334,1171
0.0018405555555555556,1176
0.001845,536
0.0018497222222222222,538
0.0018547222222222222,540
0.0018591666666666667,542
0.001863611111111111,544
0.0018680555555555555,546
0.0018727777777777777,548
0.0018775,550
0.0018819444444444445,552
0.0018866666666666667,554
0.0018913888888888889,556
0.0018958333333333334,558
0.0019002777777777779,560
0.0019047222222222221,562
0.0019094444444444445,564
0.0019141666666666667,566
0.0019188888888888888,568
0.0019236111111111112,570
0.0019283333333333333,572
0.0019330555555555555,574
0.0019377777777777778,576
0.0019422222222222221,579
0.0019469444444444445,582
0.0019513888888888888,585
0.001956111111111111,588
0.0019608333333333335,591
0.0019652777777777776,594
0.001969722222222222,597
0.0019744444444444445,600
0.001979166666666667,603
0.0019838888888888888,606
0.0019880555555555554,609
0.0019927777777777778,612
0.0019975,615
0.002002222222222222,618
0.0020069444444444444,621
0.002011388888888889,624
0.0020161111111111113,627
0.0020205555555555554,630
0.0020252777777777778,633
0.0020297222222222223,636
0.0020341666666666668,639
0.0020388888888888887,642
0.002043611111111111,645
0.0020480555555555556,648
0.0020530555555555554,651
0.0020577777777777777,654
0.0020622222222222222,657
0.0020666666666666667,660
0.0020711111111111112,663
0.002076111111111111,666
0.0020805555555555555,669
0.002085277777777778,672
0.00209,675
0.002094722222222222,678
0.0020994444444444446,681
0.002106666666666667,684
0.002111111111111111,687
0.0021158333333333333,690
0.002120277777777778,693
0.0021247222222222223,696
0.0021294444444444447,699
0.0021338888888888887,702
0.002138611111111111,705
0.0021433333333333335,708
0.0021480555555555554,711
0.0021525,714
0.0021572222222222223,717
0.0021619444444444446,720
0.0021666666666666666,723
0.002171388888888889,726
0.0021761111111111113,729
0.0021805555555555554,732
0.0021880555555555555,735
0.0021925,738
0.0021972222222222224,741
0.002202222222222222,744
0.0022069444444444445,747
0.002211388888888889,750
0.002216111111111111,753
0.0022205555555555555,757
0.002225,761
0.00223,765
0.0022344444444444443,769
0.002238888888888889,773
0.002243888888888889,777
0.002248611111111111,781
0.0022533333333333333,785
0.002258611111111111,789
0.0022630555555555555,793
0.002267777777777778,797
0.0022725,801
0.0022769444444444443,805
0.0022816666666666667,809
0.002286388888888889,813
0.0022908333333333335,817
0.0022952777777777776,821
0.002299722222222222,825
0.0023044444444444445,829
0.002309166666666667,833
0.0023138888888888888,837
0.0023183333333333333,841
0.0023230555555555556,845
0.0023275,849
0.0023319444444444446,853
0.0023366666666666666,857
0.002341388888888889,861
0.0023461111111111113,865
0.0023508333333333332,869
0.0023552777777777778,873
0.0023597222222222223,877
0.0023644444444444446,881
0.0023688888888888887,885
0.002373333333333333,889
0.0023780555555555556,893
0.002382777777777778,897
0.0023875,901
0.0023922222222222222,905
0.0023969444444444446,909
0.0024016666666666665,913
0.002406111111111111,917
0.0024108333333333334,921
0.0024155555555555558,925
0.0024202777777777777,929
0.002425,933
0.002429722222222222,937
0.0024341666666666665,941
0.002438888888888889,945
0.0024433333333333334,949
0.0024480555555555557,953
0.0024527777777777777,957
0.002457222222222222,961
0.0024619444444444446,965
0.0024666666666666665,969
0.002471388888888889,973
0.0024761111111111112,977
0.0024805555555555557,981
0.002485,985
0.0024894444444444443,989
0.0024941666666666667,993
0.002498611111111111,998
0.0025030555555555557,1003
0.0025077777777777776,1008
0.0025125,1013
0.0025169444444444445,1018
0.002521666666666667,1023
0.0025263888888888888,1028
0.0025308333333333333,1033
0.0025355555555555557,1038
0.0025402777777777776,1043
0.002544722222222222,1048
0.0025494444444444445,1053
0.002553888888888889,1058
0.0025583333333333335,1063
0.0025630555555555554,1068
0.0025675,1073
0.0025722222222222223,1078
0.0025769444444444446,1083
0.0025816666666666666,1088
0.002585833333333333,1093
0.0025902777777777777,1098
0.002595,1103
0.002599722222222222,1108
0.0026044444444444444,1113
0.002608888888888889,1118
0.0026133333333333334,1123
0.002617777777777778,1128
0.0026225,1133
0.002627222222222222,1138
0.0026316666666666667,1143
0.002636388888888889,1148
0.002641111111111111,1153
0.0026458333333333334,1158
0.002650277777777778,1163
0.0026547222222222224,1168
0.0026594444444444443,1173
0.0026641666666666667,536
0.002668888888888889,539
0.002673333333333333,542
0.0026780555555555555,545
0.002682777777777778,548
0.0026875,551
0.002692222222222222,554
0.0026969444444444445,557
0.0027016666666666665,560
0.002706388888888889,563
0.002711111111111111,566
0.002716111111111111,569
0.0027205555555555555,572
0.002725277777777778,575
0.0027297222222222224,578
0.002734166666666667,581
0.002738611111111111,584
0.0027430555555555554,587
0.002747777777777778,590
0.0027525,593
0.0027569444444444442,596
0.0027616666666666666,599
0.002766388888888889,603
0.0027708333333333335,607
0.0027755555555555554,611
0.0027802777777777778,615
0.002785,619
0.002789722222222222,623
0.0027944444444444444,627
0.002798888888888889,631
0.0028041666666666666,635
0.002808888888888889,639
0.002813611111111111,643
0.0028180555555555554,647
0.0028225,651
0.0028275,655
0.002832222222222222,659
0.0028366666666666666,663
0.002841388888888889,667
0.0028458333333333335,671
0.0028505555555555554,675
0.0028552777777777778,679
0.00286,683
0.002864722222222222,687
0.0028691666666666666,691
0.002873888888888889,695
0.0028786111111111113,699
0.0028830555555555554,703
0.0028877777777777777,707
0.002892777777777778,711
0.0028975,715
0.0029022222222222223,719
0.0029066666666666668,723
0.0029113888888888887,727
0.002916111111111111,731
0.0029225,735
0.0029269444444444443,739
0.0029316666666666666,743
0.002936388888888889,747
0.0029408333333333335,751
0.0029455555555555554,755
0.00295,759
0.0029547222222222223,763
0.0029594444444444442,767
0.0029644444444444445,771
0.002968888888888889,775
0.0029733333333333335,779
0.002977777777777778,783
0.0029825,787
0.0029872222222222223,791
0.0029919444444444446,795
0.0029963888888888887,799
0.003001111111111111,803
0.0030055555555555556,807
0.003010277777777778,811
0.0030144444444444446,815
0.003018888888888889,819
0.003023611111111111,823
0.0030283333333333334,827
0.0030330555555555558,831
0.0030375,835
0.003042222222222222,839
0.0030466666666666667,844
0.003051388888888889,849
0.003056111111111111,854
0.0030605555555555555,859
0.003065,864
0.0030697222222222224,869
0.0030744444444444443,874
0.003078888888888889,879
0.003083611111111111,884
0.0030880555555555557,889
0.0030927777777777776,894
0.003097222222222222,899
0.0031016666666666666,904
0.003106388888888889,909
0.003111111111111111,914
0.0031158333333333333,919
0.0031205555555555557,924
0.0031252777777777776,929
0.00313,934
0.0031344444444444445,939
0.003138888888888889,944
0.003143611111111111,949
0.0031483333333333333,954
0.0031530555555555556,959
0.0031577777777777776,964
0.0031625,969
0.0031672222222222223,974
0.0031719444444444442,979
0.0031766666666666666,984
0.003181111111111111,989
0.0031858333333333335,994
0.0031905555555555554,999
0.003195277777777778,1004
0.0032,1009
0.0032044444444444447,1014
0.0032091666666666666,1019
0.003213611111111111,1024
0.0032183333333333335,1029
0.0032230555555555554,1034
0.0032277777777777778,1039
0.0032325,1044
0.0032369444444444446,1049
0.0032413888888888887,1054
0.003245833333333333,1059
0.0032502777777777777,1064
0.003255,1069
0.003259722222222222,1074
0.0032644444444444444,1079
0.0032691666666666667,1084
0.0032738888888888887,1089
0.003278611111111111,1094
0.0032833333333333334,1099
0.0032880555555555553,1104
0.0032930555555555556,1109
0.0032975,1114
0.003302222222222222,1119
0.0033066666666666665,1124
0.003311111111111111,1129
0.0033155555555555555,1134
0.003320277777777778,1139
0.003325,1145
0.0033294444444444443,1151
0.0033341666666666667,1157
0.003338611111111111,1163
0.0033430555555555557,1169
0.0033477777777777776,1175
0.003352222222222222,536
0.0033569444444444445,538
0.003361666666666667,540
0.003366388888888889,542
0.0033708333333333333,544
0.003375277777777778,546
0.00338,548
0.003384722222222222,550
0.0033891666666666666,552
0.003393888888888889,554
0.0033983333333333335,556
0.0034027777777777776,558
0.003407222222222222,560
0.0034116666666666666,562
0.003416388888888889,564
0.0034208333333333335,566
0.003425277777777778,568
0.003429722222222222,570
0.0034344444444444444,572
0.003438611111111111,574
0.0034436111111111113,576
0.003448333333333333,578
0.0034530555555555556,580
0.003457777777777778,582
0.0034622222222222224,584
0.0034669444444444444,586
0.003471388888888889,588
0.0034758333333333334,590
0.003480277777777778,592
0.003485,594
0.003489722222222222,596
0.0034977777777777776,598
0.003503333333333333,600
0.0035080555555555555,602
0.0035125,604
0.0035169444444444445,606
0.003521388888888889,608
0.003526111111111111,610
0.0035308333333333333,612
0.0035355555555555557,614
0.0035402777777777776,616
0.003545,618
0.00355,620
0.0035544444444444443,622
0.0035591666666666666,624
0.003563888888888889,626
0.003568611111111111,628
0.0035733333333333333,630
0.0035780555555555557,632
0.0035827777777777776,634
0.0035875,636
0.0035922222222222223,638
0.003596666666666667,640
0.0036025,642
0.003607222222222222,644
0.0036119444444444445,646
0.003616388888888889,648
0.003621111111111111,650
0.0036255555555555555,652
0.00363,654
0.0036344444444444445,656
0.003639166666666667,658
0.003643888888888889,660
0.003648611111111111,662
0.003653611111111111,664
0.0036583333333333333,666
0.003662777777777778,668
0.0036672222222222223,670
0.003671666666666667,672
0.0036763888888888888,674
0.003681111111111111,676
0.0036855555555555556,678
0.0036902777777777776,680
0.0036944444444444446,682
0.0036991666666666666,684
0.003703888888888889,686
0.0037086111111111113,688
0.0037133333333333332,690
0.0037177777777777777,692
0.0037222222222222223,694
0.0037269444444444446,696
0.0037316666666666666,698
0.003736111111111111,700
0.0037408333333333334,702
0.0037455555555555554,704
0.00375,706
0.003755,708
0.003759722222222222,710
0.0037644444444444444,712
0.0037691666666666668,714
0.0037736111111111113,716
0.003778333333333333,718
0.0037827777777777777,720
0.003787222222222222,722
0.0037916666666666667,724
0.003796388888888889,726
0.003800833333333333,728
0.0038052777777777777,730
0.00381,732
0.003815,734
0.0038194444444444443,736
0.003823888888888889,738
0.0038283333333333333,740
0.0038330555555555557,742
0.0038377777777777776,744
0.003842222222222222,746
0.0038466666666666666,748
0.003851388888888889,750
