Time (hours),Distance from Spawning Point (km)
0.00013944444444444445,3
0.00014416666666666666,6
0.0001488888888888889,9
0.00015361111111111112,12
0.00015805555555555554,15
0.00016277777777777777,18
0.00016722222222222222,21
0.00017194444444444446,24
0.00017611111111111112,27
0.00018083333333333333,30
0.00018527777777777778,33
0.00019,36
0.00019472222222222221,39
0.00019944444444444445,42
0.00020416666666666668,45
0.0002086111111111111,48
0.00021305555555555555,51
0.00021777777777777778,54
0.0002225,57
0.00022694444444444444,60
0.0002313888888888889,63
0.00023583333333333334,66
0.00024055555555555554,69
0.000245,72
0.00024944444444444444,75
0.0002538888888888889,78
0.0002586111111111111,82
0.00026333333333333336,86
0.00026805555555555556,90
0.00027277777777777776,94
0.0002775,98
0.00028222222222222223,102
0.00028694444444444443,106
0.0002913888888888889,110
0.0002961111111111111,114
0.00030083333333333335,118
0.0003052777777777778,122
0.00031,126
0.00031444444444444445,130
0.00031916666666666665,134
0.0003238888888888889,138
0.0003286111111111111,142
0.0003333333333333333,146
0.0003380555555555556,150
0.0003427777777777778,154
0.0003475,158
0.00035194444444444444,162
0.00035666666666666664,166
0.0003613888888888889,170
0.0003661111111111111,174
0.00037055555555555556,178
0.00037527777777777776,182
0.0003797222222222222,186
0.00038444444444444447,190
0.0003891666666666667,194
0.0003936111111111111,199
0.00039833333333333333,204
0.0004027777777777778,209
0.00040722222222222223,214
0.0004116666666666667,219
0.0004163888888888889,224
0.0004211111111111111,229
0.00042583333333333335,234
0.0004302777777777778,239
0.00043472222222222225,244
0.0004397222222222222,249
0.00044444444444444447,254
0.00044916666666666667,259
0.0004538888888888889,264
0.0004583333333333333,269
0.00046305555555555553,274
0.0004677777777777778,279
0.0004725,284
0.0004772222222222222,289
0.00048194444444444446,294
0.0004863888888888889,299
0.0004908333333333334,304
0.0004952777777777778,309
0.0005,314
0.0005044444444444444,319
0.0005091666666666667,324
0.0005136111111111111,329
0.0005183333333333333,334
0.0005230555555555556,339
0.0005275,344
0.0005322222222222222,350
0.0005369444444444445,356
0.0005416666666666666,362
0.0005461111111111111,368
0.0005508333333333333,374
0.0005552777777777778,380
0.0005597222222222222,386
0.0005644444444444445,392
0.0005688888888888889,398
0.0005733333333333334,404
0.0005780555555555555,410
0.0005825,416
0.0005872222222222223,422
0.0005913888888888889,428
0.0005961111111111111,434
0.0006008333333333333,440
0.0006055555555555556,446
0.0006102777777777777,452
0.0006147222222222222,458
0.0006194444444444445,464
0.0006241666666666666,470
0.0006291666666666667,476
0.0006330555555555555,482
0.0006377777777777778,488
0.0006422222222222222,494
0.0006469444444444445,500
0.0006516666666666667,506
0.0006563888888888889,512
0.0006608333333333334,518
0.0006655555555555555,524
0.00067,531
0.0006744444444444444,538
0.0006791666666666667,545
0.0006838888888888889,552
0.0006883333333333333,559
0.0006927777777777777,566
0.0006975,573
0.0007019444444444445,580
0.0007066666666666666,587
0.0007111111111111111,594
0.0007158333333333333,601
0.0007205555555555556,608
0.000725,615
0.0007294444444444445,622
0.0007341666666666667,629
0.0007386111111111111,636
0.0007433333333333334,643
0.0007480555555555555,650
0.0007527777777777778,657
0.0007575,664
0.0007622222222222222,671
0.0007666666666666667,678
0.0007711111111111111,38
0.0007758333333333333,40
0.0007802777777777777,42
0.000785,44
0.0007897222222222223,46
0.0007941666666666667,48
0.0007986111111111112,50
0.0008030555555555556,52
0.0008077777777777778,54
0.0008122222222222222,56
0.0008166666666666667,58
0.0008213888888888889,60
0.0008261111111111111,62
0.0008308333333333334,64
0.0008355555555555555,66
0.00084,68
0.0008444444444444444,70
0.0008491666666666667,72
0.0008536111111111111,74
0.0008580555555555556,76
0.0008627777777777777,78
0.0008675,80
0.0008722222222222223,82
0.0008766666666666667,84
0.0008813888888888889,86
0.0008861111111111111,88
0.0008905555555555556,90
0.000895,92
0.0008997222222222222,94
0.0009044444444444445,96
0.0009091666666666666,98
0.0009136111111111111,100
0.0009183333333333333,102
0.0009230555555555555,104
0.0009275,106
0.0009319444444444444,108
0.0009366666666666667,110
0.0009413888888888889,112
0.0009455555555555556,114
0.0009502777777777778,116
0.000955,118
0.0009594444444444444,120
0.0009641666666666667,122
0.0009686111111111111,124
0.0009733333333333333,126
0.0009777777777777777,128
0.0009827777777777777,130
0.0009872222222222222,132
0.0009919444444444444,134
0.0009966666666666668,136
0.001001388888888889,138
0.0010058333333333334,140
0.0010105555555555556,142
0.001015,144
0.0010194444444444443,146
0.0010238888888888889,148
0.0010286111111111112,150
0.0010330555555555555,152
0.0010375,154
0.0010419444444444445,156
0.0010463888888888888,158
0.0010508333333333333,160
0.0010555555555555555,162
0.00106,164
0.0010647222222222223,166
0.0010691666666666666,168
0.0010736111111111111,170
0.0010783333333333333,172
0.0010830555555555556,174
0.0010877777777777778,176
0.0010922222222222223,178
0.0010966666666666666,180
0.001101388888888889,182
0.0011058333333333332,184
0.0011105555555555556,186
0.0011152777777777778,188
0.0011202777777777778,190
0.001125,192
0.0011294444444444444,194
0.0011344444444444444,196
0.001138888888888889,198
0.001143611111111111,200
0.0011480555555555556,202
0.0011527777777777777,204
0.0011572222222222222,206
0.0011619444444444444,208
0.0011666666666666668,210
0.001171388888888889,212
0.0011758333333333334,214
0.0011802777777777777,216
0.001185,218
0.0011894444444444444,220
0.0011941666666666667,222
0.001198611111111111,224
0.0012033333333333334,226
0.0012080555555555555,228
0.0012127777777777777,230
0.0012175,232
0.0012222222222222222,234
0.0012266666666666667,236
0.0012311111111111112,238
0.0012358333333333334,240
0.0012405555555555555,242
0.0012452777777777779,244
0.00125,246
0.0012547222222222222,248
0.0012591666666666667,250
0.0012638888888888888,252
0.0012686111111111112,254
0.0012730555555555555,256
0.0012775,258
0.0012822222222222221,260
0.0012869444444444445,262
0.0012916666666666667,264
0.0012961111111111112,266
0.0013008333333333333,268
0.0013055555555555555,270
0.00131,272
0.0013144444444444445,274
0.0013191666666666666,276
0.0013236111111111111,278
0.0013283333333333333,280
0.0013327777777777778,282
0.0013375,284
0.0013419444444444444,286
0.0013466666666666666,288
0.001351388888888889,290
0.0013558333333333332,292
0.0013605555555555556,294
0.0013652777777777778,296
0.00137,298
0.0013747222222222223,300
0.0013794444444444444,302
0.0013841666666666666,304
0.001388888888888889,306
0.001393611111111111,308
0.0013980555555555556,310
0.0014027777777777777,312
0.0014075,314
0.0014122222222222223,316
0.0014166666666666668,318
0.001421111111111111,320
0.0014258333333333334,322
0.0014302777777777777,324
0.0014347222222222222,326
0.0014394444444444444,328
0.0014441666666666667,330
0.0014488888888888889,332
0.0014533333333333334,334
0.0014580555555555555,336
0.0014625,338
0.0014672222222222222,340
0.0014716666666666667,342
0.0014763888888888888,344
0.0014808333333333334,346
0.0014855555555555555,348
0.0014902777777777779,350
0.0014947222222222222,352
0.0014991666666666667,354
0.0015041666666666667,356
0.0015083333333333333,358
0.0015130555555555555,360
0.0015180555555555555,362
0.0015222222222222221,364
0.0015269444444444445,366
0.0015316666666666666,368
0.0015361111111111111,370
0.0015405555555555556,372
0.0015452777777777778,374
0.00155,376
0.0015547222222222223,378
0.0015597222222222223,380
0.0015641666666666666,382
0.0015686111111111111,384
0.0015736111111111111,386
0.0015777777777777778,388
0.0015822222222222223,390
0.0015869444444444444,392
0.0015916666666666666,394
0.001596388888888889,396
0.0016008333333333332,398
0.0016055555555555556,400
0.00161,402
0.0016147222222222223,404
0.0016194444444444444,406
0.0016241666666666668,408
0.001628611111111111,410
0.0016333333333333334,412
0.0016380555555555556,414
0.0016430555555555556,416
0.0016477777777777777,418
0.0016525,420
0.0016569444444444444,422
0.001661388888888889,424
0.001666111111111111,426
0.0016708333333333334,428
0.0016752777777777777,430
0.00168,432
0.001685,434
0.0016894444444444444,436
0.0016941666666666667,438
0.0016988888888888889,440
0.001703611111111111,442
0.0017083333333333334,444
0.0017127777777777777,446
0.0017172222222222222,448
0.0017219444444444443,450
0.0017266666666666667,452
0.0017311111111111112,454
0.0017358333333333334,456
0.0017405555555555555,458
0.001745,460
0.0017497222222222222,462
0.0017544444444444445,464
0.0017591666666666667,466
0.0017636111111111112,468
0.0017680555555555555,470
0.0017730555555555555,472
0.0017777777777777779,474
0.0017825,476
0.0017872222222222222,478
0.0017919444444444445,480
0.0017963888888888888,482
0.0018013888888888888,484
0.0018061111111111112,486
0.0018105555555555555,488
0.0018152777777777779,490
0.00182,492
0.0018244444444444445,494
0.0018291666666666667,496
0.0018338888888888888,498
0.0018383333333333333,500
0.0018427777777777778,502
0.0018475,504
0.0018519444444444445,506
0.001856388888888889,508
0.0018611111111111111,510
0.0018658333333333333,512
0.0018705555555555556,514
0.001875,516
0.0018797222222222223,518
0.0018844444444444444,520
0.001888888888888889,522
0.001893611111111111,524
0.0018983333333333333,526
0.0019030555555555556,528
0.0019077777777777778,530
0.0019125,532
0.0019172222222222223,534
0.0019216666666666666,536
0.001926388888888889,538
0.001931388888888889,540
0.001936111111111111,542
0.0019408333333333333,544
0.0019452777777777778,546
0.0019497222222222223,548
0.0019544444444444444,550
0.001958888888888889,552
0.0019636111111111113,554
0.0019683333333333332,556
0.0019730555555555556,558
0.001977777777777778,560
0.001982222222222222,562
0.0019869444444444444,564
0.0019916666666666668,566
0.0019966666666666666,568
0.002001388888888889,570
0.0020058333333333334,572
0.002010277777777778,574
0.0020152777777777777,576
0.0020197222222222222,578
0.0020241666666666667,580
0.0020286111111111112,582
0.0020330555555555557,584
0.0020377777777777777,586
0.0020425,588
0.0020469444444444445,590
0.002051388888888889,592
0.002056111111111111,594
0.0020608333333333334,596
0.002065277777777778,598
0.0020697222222222224,600
0.0020744444444444443,602
0.0020791666666666667,604
0.002083611111111111,606
0.0020880555555555557,608
0.0020927777777777776,610
0.0020975,612
0.0021022222222222223,614
0.002106666666666667,616
0.002111111111111111,618
0.0021158333333333333,620
0.0021205555555555556,622
0.0021252777777777776,624
0.00213,626
0.0021344444444444445,628
0.002139166666666667,630
0.0021438888888888888,632
0.0021483333333333333,634
0.0021530555555555556,636
0.002157777777777778,638
0.002162222222222222,640
0.0021669444444444444,642
0.002171388888888889,644
0.0021761111111111113,646
0.0021805555555555554,648
0.0021852777777777777,650
0.002190277777777778,652
0.002194722222222222,654
0.0021994444444444444,656
0.0022041666666666668,658
0.0022088888888888887,660
0.002213611111111111,662
0.0022183333333333334,664
0.002222777777777778,666
0.0022275,668
0.0022322222222222222,670
0.0022366666666666668,672
0.0022411111111111113,674
0.002245833333333333,676
0.0022505555555555556,678
0.002255277777777778,38
0.00226,41
0.0022644444444444444,44
0.0022691666666666667,47
0.0022736111111111112,50
0.002278333333333333,53
0.0022827777777777777,56
0.0022875,59
0.0022919444444444445,62
0.0022966666666666665,65
0.002301388888888889,68
0.0023058333333333333,71
0.0023105555555555557,74
0.002315,77
0.002319722222222222,80
0.0023244444444444445,84
0.0023291666666666665,88
0.002333888888888889,92
0.002338611111111111,96
0.0023430555555555557,100
0.0023480555555555555,104
0.002352777777777778,108
0.0023575,112
0.002361666666666667,116
0.002366388888888889,120
0.0023705555555555554,124
0.002375277777777778,128
0.0023797222222222223,132
0.0023844444444444442,136
0.0023888888888888887,140
0.002393611111111111,144
0.0023983333333333335,148
0.0024030555555555554,152
0.0024075,156
0.0024122222222222223,160
0.0024169444444444447,164
0.0024216666666666666,168
0.002426111111111111,172
0.0024305555555555556,176
0.002435277777777778,180
0.0024402777777777778,184
0.0024447222222222223,188
0.0024494444444444446,192
0.0024541666666666666,196
0.002458888888888889,200
0.0024633333333333334,204
0.002467777777777778,208
0.002472222222222222,212
0.0024769444444444444,216
0.002481388888888889,220
0.0024858333333333334,224
0.0024905555555555558,228
0.0024952777777777777,232
0.002499722222222222,236
0.0025041666666666667,240
0.002508611111111111,244
0.002513333333333333,248
0.0025180555555555555,252
0.0025225,256
0.0025269444444444445,260
0.002531388888888889,264
0.002536388888888889,268
0.002541111111111111,272
0.0025458333333333335,276
0.0025502777777777776,280
0.002555,284
0.0025597222222222223,288
0.002564166666666667,292
0.002568888888888889,296
0.0025733333333333333,300
0.002577777777777778,304
0.0025822222222222223,308
0.0025869444444444442,312
0.0025916666666666666,316
0.002596388888888889,321
0.0026008333333333335,326
0.0026055555555555554,331
0.0026102777777777778,336
0.002615,341
0.002619722222222222,346
0.0026244444444444444,351
0.002628888888888889,356
0.0026336111111111113,361
0.0026380555555555554,366
0.0026425,371
0.0026472222222222223,376
0.0026516666666666668,381
0.0026563888888888887,386
0.002661111111111111,391
0.0026658333333333334,396
0.0026705555555555554,401
0.0026752777777777777,406
0.0026797222222222222,411
0.0026844444444444446,416
0.0026891666666666665,421
0.002693888888888889,426
0.0026986111111111113,431
0.002703333333333333,436
0.0027077777777777777,441
0.0027125,446
0.0027169444444444446,451
0.002721388888888889,456
0.002725833333333333,461
0.0027305555555555555,466
0.0027469444444444447,471
0.0027516666666666666,476
0.002756388888888889,481
0.0027611111111111113,486
0.0027658333333333333,491
0.0027702777777777778,496
0.002775,501
0.002779722222222222,506
0.0027844444444444444,511
0.002789166666666667,516
0.0027936111111111113,521
0.0027980555555555554,526
0.0028025,531
0.0028072222222222222,536
0.0028119444444444446,541
0.0028166666666666665,546
0.002821111111111111,551
0.0028258333333333334,556
0.002830277777777778,561
0.0028355555555555556,566
0.00284,571
0.002844722222222222,576
0.0028494444444444444,581
0.0028541666666666667,586
0.0028586111111111112,591
0.002863333333333333,596
0.0028680555555555555,601
0.0028725,606
0.0028772222222222224,611
0.0028816666666666665,616
0.002886388888888889,622
0.0028911111111111112,628
0.002895833333333333,634
0.0029002777777777777,640
0.002905,646
0.0029097222222222224,652
0.0029144444444444443,658
0.0029191666666666667,664
0.002923888888888889,670
0.002928333333333333,676
0.0029330555555555555,38
0.002937777777777778,41
0.0029425,44
0.0029469444444444443,47
0.0029516666666666667,50
0.002956111111111111,53
0.0029608333333333335,56
0.0029655555555555555,59
0.00297,62
0.0029747222222222224,65
0.0029794444444444443,68
0.0029841666666666667,71
0.002988611111111111,74
0.0029933333333333335,77
0.0029977777777777776,80
0.003002222222222222,83
0.0030069444444444445,86
0.003011666666666667,89
0.0030163888888888888,92
0.003021111111111111,95
0.0030258333333333335,98
0.0030302777777777776,101
0.003034722222222222,104
0.0030391666666666666,107
0.003043888888888889,110
0.0030486111111111113,113
0.0030530555555555554,116
0.0030575,119
0.0030622222222222223,122
0.0030669444444444446,125
0.0030716666666666666,128
0.003076111111111111,131
0.0030808333333333334,134
0.003085277777777778,137
0.00309,140
0.0030944444444444444,143
0.003098888888888889,146
0.0031033333333333334,149
0.0031080555555555557,152
0.0031127777777777777,155
0.0031175,158
0.0031219444444444445,161
0.0031266666666666665,164
0.003131388888888889,167
0.0031361111111111112,170
0.003140833333333333,173
0.0031455555555555555,176
0.003150277777777778,179
0.0031547222222222224,182
0.0031594444444444443,186
0.0031641666666666667,190
0.003168611111111111,194
0.003173333333333333,198
0.0031777777777777776,202
0.0031825,206
0.0031872222222222224,210
0.0031919444444444443,214
0.0031966666666666667,218
0.003201388888888889,222
0.0032058333333333335,226
0.0032102777777777776,230
0.003214722222222222,234
0.0032191666666666666,238
0.003223611111111111,242
0.0032283333333333335,246
0.0032330555555555554,250
0.0032375,254
0.0032419444444444444,258
0.0032469444444444447,262
0.0032516666666666666,266
0.003256111111111111,270
0.0032605555555555556,274
0.003265277777777778,278
0.00327,282
0.0032744444444444444,286
0.0032791666666666668,290
0.0032836111111111113,294
0.0032880555555555553,298
0.0032927777777777777,302
0.0032975,306
0.003302222222222222,310
0.0033069444444444444,314
0.0033116666666666668,318
0.0033163888888888887,322
0.003320833333333333,326
0.0033255555555555556,330
0.003329722222222222,334
0.0033344444444444446,338
0.0033391666666666665,342
0.003343611111111111,346
0.0033483333333333334,350
0.0033530555555555557,354
0.0033577777777777777,358
0.003362222222222222,362
0.0033666666666666667,366
0.003371388888888889,370
0.003375833333333333,374
0.0033805555555555555,378
0.003385,382
0.0033894444444444445,386
0.003393888888888889,390
0.003398888888888889,394
0.003403611111111111,398
0.0034080555555555557,402
0.0034125,406
0.003417222222222222,410
0.0034216666666666666,414
0.003426388888888889,418
0.003431111111111111,422
0.0034355555555555554,427
0.0034402777777777778,432
0.003445,437
0.0034494444444444446,442
0.0034541666666666666,447
0.003458888888888889,452
0.0034636111111111113,457
0.003467777777777778,462
0.0034725,467
0.0034769444444444444,472
0.0034816666666666668,477
0.0034863888888888887,482
0.003491111111111111,487
0.0034958333333333334,492
0.003500277777777778,497
0.003504722222222222,502
0.0035094444444444444,507
0.0035141666666666667,512
0.0035186111111111112,517
0.003523333333333333,522
0.0035277777777777777,527
0.0035325,532
0.0035372222222222224,537
0.0035416666666666665,542
0.003546388888888889,547
0.0035511111111111112,552
0.003555833333333333,557
0.0035602777777777777,562
0.003565,567
0.0035694444444444445,572
0.0035741666666666665,577
0.003578888888888889,582
0.003583611111111111,587
0.0035880555555555557,592
0.0035925,597
0.0035969444444444443,602
0.0036013888888888888,607
0.003606111111111111,612
0.003611111111111111,617
0.0036155555555555554,622
0.003620277777777778,627
0.003625,632
0.0036294444444444443,637
0.0036338888888888888,642
0.0036383333333333333,647
0.0036430555555555556,652
0.0036480555555555554,657
0.003652777777777778,662
0.0036575,667
0.0036619444444444442,672
0.0036666666666666666,677
0.003671388888888889,38
0.0036758333333333335,40
0.0036805555555555554,42
0.0036852777777777778,44
0.0036897222222222223,46
0.0036944444444444446,48
0.0036991666666666666,50
0.003703888888888889,52
0.0037083333333333334,54
0.0037130555555555554,56
0.0037175,58
0.0037219444444444444,60
0.003726388888888889,62
0.0037308333333333334,64
0.003735277777777778,66
0.0037397222222222224,68
0.0037444444444444443,70
0.0037491666666666667,72
0.003753611111111111,74
0.003758333333333333,76
0.0037627777777777776,78
0.0037675,80
0.0037722222222222224,82
0.0037766666666666665,84
0.003781388888888889,86
0.003786111111111111,88
0.003790833333333333,90
0.0037952777777777776,92
0.0038,94
0.0038044444444444445,96
0.003809166666666667,98
0.003813611111111111,100
0.0038180555555555554,102
0.0038225,104
0.0038272222222222223,106
0.003831666666666667,108
0.0038361111111111113,110
0.0038408333333333333,112
0.0038452777777777778,114
0.00385,116
0.003854722222222222,118
0.0038594444444444444,120
0.003864166666666667,122
0.0038686111111111113,124
0.0038730555555555554,126
0.0038777777777777777,128
0.0038825,130
0.003887222222222222,132
0.0038916666666666665,134
0.003896388888888889,136
0.0039008333333333334,138
0.0039055555555555553,140
0.003910277777777778,142
0.003914722222222222,144
0.003919166666666666,146
0.003923611111111111,148
0.003928055555555555,150
