Time (hours),Distance from Spawning Point (km)
0.00018472222222222222,-3
0.00018944444444444445,-6
0.0001938888888888889,-9
0.0001986111111111111,-12
0.00020305555555555555,-15
0.0002075,-18
0.00021222222222222223,-21
0.00021694444444444444,-24
0.0002213888888888889,-27
0.00022583333333333334,-30
0.0002302777777777778,-33
0.0002347222222222222,-36
0.00023916666666666666,-39
0.0002438888888888889,-42
0.0002486111111111111,-45
0.00025333333333333333,-48
0.0002577777777777778,-51
0.00026222222222222223,-54
0.00026694444444444443,-57
0.0002716666666666667,-60
0.0002761111111111111,-63
0.00028055555555555554,-66
0.0002852777777777778,-69
0.00029,-72
0.00029444444444444445,-75
0.0002988888888888889,-78
0.00030333333333333335,-81
0.0003077777777777778,-84
0.0003122222222222222,-87
0.00031666666666666665,-91
0.0003213888888888889,-95
0.00032583333333333336,-99
0.00033027777777777775,-103
0.0003347222222222222,-107
0.00033916666666666665,-111
0.0003438888888888889,-115
0.0003486111111111111,-119
0.00035305555555555557,-123
0.00035777777777777777,-127
0.00036194444444444447,-131
0.00036638888888888886,-135
0.0003711111111111111,505
0.00037555555555555557,503
0.0003802777777777778,501
0.000385,499
0.00038972222222222224,497
0.0003941666666666667,495
0.0003988888888888889,493
0.0004036111111111111,491
0.00040833333333333336,489
0.00041305555555555556,487
0.0004175,485
0.0004222222222222222,483
0.0004269444444444444,481
0.00043138888888888887,479
0.0004358333333333333,477
0.00044027777777777777,475
0.0004447222222222222,473
0.0004494444444444444,471
0.0004538888888888889,469
0.00045861111111111113,467
0.00046305555555555553,465
0.0004675,463
0.00047222222222222224,461
0.0004766666666666667,459
0.0004811111111111111,457
0.00048583333333333334,455
0.0004902777777777777,452
0.0004947222222222222,449
0.0004991666666666666,446
0.0005036111111111111,443
0.0005080555555555555,440
0.0005125,437
0.0005169444444444444,434
0.0005213888888888888,431
0.0005258333333333333,428
0.0005302777777777777,425
0.0005347222222222222,422
0.0005394444444444445,419
0.0005441666666666666,416
0.0005488888888888889,413
0.0005536111111111111,410
0.0005583333333333333,407
0.0005627777777777778,404
0.0005675,401
0.0005722222222222222,398
0.0005766666666666666,395
0.0005813888888888889,392
0.0005858333333333333,389
0.0005902777777777778,386
0.0005947222222222222,383
0.0005997222222222222,380
0.0006044444444444445,377
0.0006091666666666667,374
0.0006138888888888889,371
0.0006183333333333334,368
0.0006230555555555555,365
0.0006277777777777778,361
0.0006322222222222222,357
0.0006369444444444444,353
0.0006416666666666667,349
0.0006461111111111111,345
0.0006508333333333333,341
0.0006555555555555556,337
0.0006602777777777778,333
0.000665,329
0.0006697222222222223,325
0.0006747222222222222,321
0.0006794444444444444,317
0.0006841666666666667,313
0.0006886111111111111,309
0.0006930555555555556,305
0.0006977777777777777,301
0.0007025,297
0.0007069444444444444,293
0.0007116666666666667,289
0.0007163888888888889,285
0.0007208333333333333,281
0.0007255555555555556,277
0.0007302777777777778,273
0.0007347222222222222,269
0.0007394444444444445,265
0.0007441666666666666,261
0.0007488888888888889,257
0.0007533333333333333,253
0.0007580555555555555,249
0.0007625,245
0.0007669444444444444,240
0.0007716666666666667,235
0.0007763888888888889,230
0.0007808333333333334,225
0.0007855555555555555,220
0.0007905555555555555,215
0.0007952777777777778,210
0.0008,205
0.0008044444444444444,200
0.0008088888888888889,195
0.0008136111111111111,190
0.0008180555555555556,185
0.0008227777777777777,180
0.0008275,175
0.0008319444444444444,170
0.0008366666666666667,165
0.0008413888888888889,160
0.0008461111111111111,155
0.0008508333333333333,150
0.0008552777777777778,145
0.00086,140
0.0008647222222222222,135
0.0008691666666666666,130
0.0008736111111111111,125
0.0008780555555555555,120
0.0008825,115
0.0008872222222222222,110
0.0008916666666666667,105
0.0008963888888888888,100
0.0009008333333333333,95
0.0009052777777777777,89
0.00091,83
0.0009144444444444444,77
0.0009191666666666667,71
0.0009236111111111112,65
0.0009283333333333333,59
0.0009330555555555556,53
0.0009377777777777778,47
0.0009425,41
0.0009472222222222222,35
0.0009519444444444445,29
0.0009566666666666666,23
0.0009613888888888889,17
0.0009661111111111112,11
0.0009705555555555556,5
0.0009752777777777778,-1
0.00098,-7
0.0009844444444444445,-13
0.0009891666666666666,-19
0.0009936111111111111,-25
0.0009983333333333333,-31
0.0010027777777777778,-37
0.0010072222222222223,-43
0.0010116666666666666,-49
0.001016111111111111,-55
0.0010208333333333332,-61
0.0010252777777777777,-67
0.00103,-73
0.0010344444444444444,-79
0.0010388888888888889,-85
0.001043611111111111,-92
0.0010483333333333334,-99
0.0010527777777777777,-106
0.0010572222222222222,-113
0.0010619444444444444,-120
0.0010663888888888889,-127
0.0010708333333333334,-134
0.0010755555555555555,505
0.0010802777777777779,503
0.0010847222222222222,501
0.0010894444444444445,499
0.0010941666666666667,497
0.0010986111111111112,495
0.0011030555555555555,493
0.0011075,491
0.0011122222222222221,489
0.0011169444444444445,487
0.0011213888888888888,485
0.0011258333333333333,483
0.0011302777777777778,481
0.001135,479
0.0011394444444444444,477
0.0011441666666666666,475
0.001148888888888889,473
0.0011536111111111111,471
0.0011583333333333333,469
0.0011630555555555556,467
0.0011675,464
0.0011722222222222223,461
0.0011766666666666666,458
0.001181388888888889,455
0.0011858333333333332,452
0.0011905555555555556,449
0.0011952777777777777,446
0.0012,443
0.0012047222222222223,440
0.0012094444444444444,437
0.0012141666666666666,434
0.001218888888888889,431
0.0012233333333333334,428
0.0012280555555555556,425
0.0012330555555555556,422
0.0012375,419
0.0012419444444444444,416
0.001246388888888889,413
0.001251388888888889,410
0.001256111111111111,407
0.0012608333333333334,404
0.0012652777777777777,401
0.00127,398
0.0012747222222222222,395
0.0012794444444444444,392
0.0012841666666666667,389
0.001288611111111111,386
0.0012930555555555555,383
0.0012977777777777777,380
0.0013025,377
0.0013072222222222222,373
0.0013119444444444444,369
0.0013163888888888889,365
0.001321111111111111,361
0.0013258333333333334,357
0.0013305555555555555,353
0.001335,349
0.0013394444444444445,345
0.0013441666666666667,341
0.0013488888888888888,337
0.0013536111111111112,333
0.0013583333333333334,329
0.0013627777777777779,325
0.0013672222222222221,321
0.0013719444444444445,317
0.0013766666666666667,313
0.0013813888888888888,309
0.0013861111111111112,305
0.0013905555555555555,301
0.0013952777777777778,297
0.0013997222222222221,293
0.0014044444444444445,289
0.001408888888888889,285
0.0014136111111111111,281
0.0014183333333333333,277
0.0014230555555555557,273
0.0014277777777777778,269
0.0014322222222222223,265
0.0014372222222222223,261
0.0014416666666666666,257
0.0014461111111111111,252
0.0014505555555555556,247
0.0014552777777777778,242
0.00146,237
0.0014647222222222223,232
0.0014694444444444444,227
0.0014741666666666666,222
0.001478888888888889,217
0.0014836111111111111,212
0.0014883333333333333,207
0.0014930555555555556,202
0.0014977777777777778,197
0.0015025,192
0.0015072222222222223,187
0.0015116666666666666,182
0.001516388888888889,177
0.0015208333333333332,172
0.0015252777777777777,167
0.00153,162
0.0015344444444444444,157
0.001538888888888889,152
0.001543611111111111,147
0.0015483333333333334,142
0.0015530555555555556,137
0.0015577777777777777,132
0.0015622222222222222,127
0.0015669444444444444,122
0.0015713888888888889,117
0.0015758333333333334,112
0.0015805555555555555,107
0.001585,101
0.0015894444444444445,95
0.0015941666666666667,89
0.0015988888888888888,83
0.0016036111111111112,77
0.0016083333333333334,71
0.0016130555555555555,65
0.0016175,59
0.0016222222222222222,53
0.0016266666666666667,47
0.0016313888888888888,41
0.0016361111111111112,35
0.0016408333333333333,29
0.0016452777777777778,23
0.00165,17
0.0016547222222222221,11
0.0016594444444444445,5
0.0016638888888888888,-1
0.0016683333333333333,-7
0.0016727777777777778,-13
0.0016772222222222223,-19
0.0016819444444444445,-25
0.0016866666666666666,-31
0.001691388888888889,-37
0.0016961111111111111,-43
0.0017005555555555556,-49
0.0017052777777777778,-55
0.0017097222222222223,-61
0.0017144444444444444,-67
0.0017191666666666666,-73
0.001723611111111111,-80
0.0017280555555555556,-87
0.0017327777777777777,-94
0.0017375,-101
0.0017422222222222223,-108
0.0017469444444444444,-115
0.0017516666666666666,-122
0.001756111111111111,-129
0.0017608333333333334,505
0.0017655555555555556,503
0.0017702777777777777,501
0.0017747222222222222,499
0.0017794444444444444,497
0.0017841666666666668,495
0.001788611111111111,493
0.0017933333333333334,491
0.0017980555555555556,489
0.0018027777777777777,487
0.0018075,485
0.0018119444444444444,483
0.0018166666666666667,481
0.001821111111111111,479
0.0018255555555555555,477
0.0018302777777777777,475
0.001835,473
0.0018397222222222222,471
0.0018441666666666667,469
0.0018486111111111112,467
0.0018533333333333334,465
0.0018580555555555555,463
0.0018625,461
0.0018672222222222222,459
0.0018719444444444445,457
0.0018766666666666667,455
0.0018813888888888888,453
0.0018861111111111112,451
0.0018905555555555555,449
0.001895,447
0.0018997222222222221,445
0.0019041666666666666,443
0.0019088888888888888,441
0.0019133333333333333,439
0.0019183333333333333,437
0.0019227777777777778,435
0.0019275,433
0.0019322222222222223,431
0.0019366666666666666,429
0.0019411111111111111,427
0.0019455555555555556,425
0.0019502777777777778,423
0.0019552777777777776,421
0.00196,419
0.0019644444444444444,417
0.001969166666666667,415
0.0019736111111111113,413
0.0019780555555555554,411
0.0019825,409
0.0019872222222222223,406
0.0019916666666666668,403
0.0019961111111111113,400
0.0020005555555555558,397
0.0020052777777777777,394
0.002009722222222222,391
0.0020144444444444446,388
0.0020191666666666665,385
0.002023888888888889,382
0.0020283333333333334,379
0.002032777777777778,376
0.0020372222222222224,373
0.0020416666666666665,370
0.002046388888888889,367
0.0020508333333333333,364
0.002055277777777778,361
0.0020597222222222223,358
0.0020644444444444443,355
0.0020691666666666666,352
0.002073611111111111,349
0.0020780555555555556,346
0.0020825,343
0.0020869444444444447,340
0.0020913888888888887,337
0.002096111111111111,334
0.0021008333333333335,331
0.002105277777777778,328
0.00211,325
0.0021144444444444444,322
0.002118888888888889,319
0.0021233333333333334,316
0.002127777777777778,313
0.0021322222222222224,310
0.0021366666666666665,307
0.002141388888888889,304
0.0021461111111111112,301
0.0021505555555555557,298
0.0021552777777777777,295
0.002159722222222222,292
0.0021644444444444445,289
0.0021691666666666665,286
0.002173611111111111,283
0.0021780555555555555,280
0.0021825,277
0.0021869444444444445,274
0.002191666666666667,271
0.002196111111111111,268
0.0022005555555555554,265
0.002205277777777778,262
0.00221,259
0.002214722222222222,256
0.0022194444444444445,253
0.002224166666666667,250
0.0022288888888888888,247
0.0022333333333333333,244
0.0022377777777777778,241
0.0022425,238
0.0022469444444444446,235
0.0022516666666666666,232
0.002256111111111111,229
0.0022608333333333334,225
0.0022655555555555554,221
0.00227,217
0.0022747222222222222,213
0.0022791666666666668,209
0.0022838888888888887,205
0.002288611111111111,201
0.0022930555555555556,197
0.002297777777777778,193
0.0023025,189
0.0023069444444444444,185
0.0023116666666666667,181
0.0023161111111111112,177
0.002320833333333333,173
0.0023255555555555555,169
0.00233,165
0.0023347222222222224,161
0.0023391666666666665,157
0.002343611111111111,153
0.0023480555555555555,149
0.002352777777777778,145
0.0023572222222222224,141
0.002361666666666667,137
0.002366388888888889,133
0.002371111111111111,129
0.0023755555555555557,125
0.0023802777777777776,121
0.002384722222222222,117
0.0023891666666666666,113
0.002393611111111111,109
0.0023980555555555556,105
0.0024025,101
0.0024069444444444446,97
0.0024116666666666666,93
0.002416111111111111,89
0.0024205555555555556,85
0.002425,81
0.0024294444444444446,77
0.0024341666666666665,73
0.002438888888888889,69
0.0024433333333333334,65
0.0024480555555555557,61
0.0024525,57
0.0024569444444444443,53
0.0024616666666666667,49
0.002466111111111111,45
0.002470833333333333,41
0.0024755555555555555,37
0.002480277777777778,33
0.0024847222222222224,29
0.002489166666666667,25
0.0024941666666666667,21
0.002498888888888889,17
0.002503611111111111,13
0.0025083333333333333,9
0.002512777777777778,5
0.0025172222222222223,1
0.0025219444444444443,-3
0.0025266666666666666,-7
0.002531388888888889,-11
0.002536111111111111,-16
0.0025408333333333333,-21
0.002545277777777778,-26
0.00255,-31
0.0025544444444444443,-36
0.0025588888888888888,-41
0.002563611111111111,-46
0.0025680555555555556,-51
0.0025725,-56
0.0025769444444444446,-61
0.0025816666666666666,-66
0.002586111111111111,-71
0.0025905555555555556,-76
0.002595277777777778,-81
0.002599722222222222,-86
0.0026041666666666665,-91
0.002608611111111111,-96
0.0026130555555555555,-101
0.0026175,-106
0.0026222222222222224,-111
0.0026269444444444443,-116
0.002631388888888889,-121
0.002636111111111111,-126
0.0026405555555555557,-131
0.002645,505
0.002649722222222222,502
0.0026544444444444445,499
0.002658888888888889,496
0.002663611111111111,493
0.0026683333333333333,490
0.002672777777777778,487
0.0026775,484
0.0026819444444444443,481
0.0026866666666666666,478
0.002691388888888889,475
0.002696111111111111,472
0.0027008333333333333,469
0.002705277777777778,466
0.00271,463
0.0027144444444444442,460
0.0027191666666666666,457
0.002723888888888889,454
0.002728611111111111,451
0.0027330555555555554,448
0.0027375,445
0.0027419444444444444,442
0.002746388888888889,439
0.0027511111111111113,436
0.0027558333333333332,433
0.0027602777777777777,430
0.002765,427
0.002769722222222222,424
0.0027744444444444444,421
0.0027791666666666668,418
0.0027836111111111113,415
0.0027880555555555553,412
0.0027925,409
0.0027969444444444443,406
0.002801388888888889,403
0.0028058333333333334,400
0.0028105555555555557,397
0.0028152777777777777,394
0.00282,391
0.0028244444444444445,388
0.002828888888888889,385
0.0028333333333333335,381
0.0028380555555555555,377
0.0028425,373
0.0028472222222222223,369
0.002851666666666667,365
0.0028563888888888888,361
0.002861111111111111,357
0.0028655555555555557,353
0.00287,349
0.002874722222222222,345
0.0028794444444444445,341
0.002883888888888889,337
0.0028886111111111113,333
0.0028933333333333333,329
0.0028980555555555556,325
0.0029030555555555554,321
0.0029080555555555557,317
0.0029125,313
0.002917222222222222,309
0.0029219444444444445,305
0.002926666666666667,301
0.0029313888888888888,297
0.0029358333333333333,293
0.0029402777777777778,289
0.0029447222222222223,285
0.0029494444444444446,281
0.0029541666666666666,277
0.002958888888888889,273
0.0029636111111111113,269
0.0029683333333333332,265
0.0029730555555555556,261
0.0029775,257
0.002982222222222222,253
0.0029866666666666665,249
0.002991388888888889,245
0.0029961111111111113,241
0.0030005555555555554,237
0.0030052777777777777,233
0.0030097222222222222,229
0.0030141666666666667,225
0.0030186111111111112,221
0.0030230555555555557,217
0.0030277777777777777,213
0.003032222222222222,209
0.0030366666666666667,205
0.003041388888888889,201
0.003045833333333333,197
0.0030502777777777776,193
0.003054722222222222,189
0.0030594444444444445,185
0.003064166666666667,181
0.003068888888888889,177
0.0030733333333333333,173
0.0030780555555555557,169
0.0030827777777777776,165
0.0030875,161
0.0030919444444444445,157
0.003096666666666667,153
0.0031013888888888888,149
0.003106111111111111,145
0.0031108333333333335,140
0.0031155555555555554,135
0.003119722222222222,130
0.0031244444444444444,125
0.003129166666666667,120
0.0031336111111111113,115
0.003138611111111111,110
0.0031430555555555556,105
0.0031475,100
0.0031519444444444446,95
0.0031563888888888887,90
0.003161111111111111,85
0.0031652777777777777,80
0.003169722222222222,75
0.0031741666666666667,70
0.0031786111111111112,65
0.0031830555555555557,60
0.0031877777777777777,55
0.0031925,50
0.0031972222222222224,45
0.0032019444444444443,40
0.003206388888888889,35
0.003211111111111111,30
0.003216111111111111,25
0.0032208333333333334,20
0.0032255555555555557,15
0.0032302777777777777,10
0.003234722222222222,5
0.0032394444444444445,0
0.0032441666666666665,-5
0.0032491666666666667,-10
0.003253888888888889,-15
0.003258611111111111,-20
0.0032636111111111112,-25
0.003268333333333333,-30
0.0032730555555555555,-35
0.003277777777777778,-40
0.0032822222222222224,-45
0.0032869444444444443,-50
0.0032916666666666667,-55
0.003296388888888889,-60
0.003301111111111111,-65
0.0033058333333333334,-70
0.0033105555555555557,-75
0.0033152777777777777,-80
0.00332,-85
0.0033244444444444445,-90
0.0033291666666666665,-95
0.003333611111111111,-100
0.0033380555555555555,-105
0.003342777777777778,-110
0.0033475,-115
0.0033519444444444443,-120
0.0033566666666666667,-125
0.003361388888888889,-130
0.003366111111111111,-135
0.0033708333333333333,505
0.0033755555555555557,502
0.0033802777777777776,499
0.003385,496
0.0033897222222222224,493
0.003394722222222222,490
0.0033997222222222224,487
0.0034041666666666665,484
0.003408888888888889,481
0.0034133333333333333,478
0.0034180555555555557,475
0.0034227777777777776,472
0.0034275,469
0.0034322222222222224,466
0.0034369444444444443,463
0.003441388888888889,460
0.0034458333333333333,457
0.003450277777777778,454
0.003455,451
0.003459722222222222,448
0.0034644444444444445,445
0.003469166666666667,442
0.003473611111111111,439
0.0034780555555555554,436
0.0034825,433
0.0034872222222222223,430
0.0034919444444444447,427
0.0034969444444444444,424
0.003501666666666667,421
0.0035063888888888887,418
0.003511111111111111,415
0.0035158333333333335,412
0.0035205555555555554,409
0.003525277777777778,406
0.00353,403
0.0035344444444444447,400
0.0035391666666666666,397
0.003543888888888889,394
0.0035486111111111113,391
0.0035533333333333333,388
0.0035580555555555556,385
0.003562777777777778,382
0.003567222222222222,379
0.0035719444444444444,376
0.003576666666666667,373
0.0035813888888888887,370
0.003586388888888889,367
0.0035913888888888888,364
0.003596111111111111,361
0.0036008333333333335,358
0.0036055555555555554,355
0.003610277777777778,352
0.003615,349
0.0036194444444444442,346
0.0036238888888888887,343
0.003628611111111111,340
0.0036333333333333335,337
0.0036380555555555554,334
0.0036427777777777778,331
0.0036472222222222223,328
0.0036516666666666668,325
0.0036561111111111113,322
0.0036605555555555554,319
0.003665,316
0.0036697222222222222,313
0.0036741666666666667,310
0.003678888888888889,307
0.003683611111111111,304
0.0036886111111111113,301
0.003693333333333333,298
0.0036983333333333334,295
0.0037030555555555554,292
0.0037075,289
0.0037119444444444444,286
0.0037166666666666667,283
0.0037211111111111112,280
0.003725833333333333,277
0.0037305555555555555,274
0.003735277777777778,271
0.0037397222222222224,268
0.0037444444444444443,265
0.003748888888888889,262
0.0037533333333333333,259
0.0037580555555555557,256
0.0037625,253
0.0037669444444444443,250
0.003771388888888889,247
0.0037758333333333333,244
0.0037805555555555557,241
0.0037852777777777776,238
0.003789722222222222,235
0.0037944444444444445,232
0.003798888888888889,229
0.0038033333333333335,226
0.0038080555555555554,223
0.0038127777777777778,220
0.0038175,217
0.003822222222222222,214
0.0038269444444444444,211
0.003831388888888889,208
0.0038361111111111113,205
0.0038405555555555554,202
0.0038452777777777778,199
0.00385,196
0.003854722222222222,193
0.0038591666666666666,190
0.003863888888888889,187
0.0038686111111111113,184
0.0038733333333333332,181
0.0038777777777777777,178
0.0038822222222222222,175
0.0038866666666666667,172
0.0038913888888888887,169
0.003896111111111111,166
0.0039008333333333334,163
0.0039055555555555553,160
0.003910277777777778,157
0.003915,154
0.003919722222222222,151
0.003924444444444445,148
0.003929166666666667,145
0.003933888888888889,142
